omega	X
-9.42478	1
-9.39336	0.973451
-9.36195	0.894978
-9.33053	0.768068
-9.29911	0.598384
-9.2677	0.393557
-9.23628	0.162903
-9.20487	-0.0829303
-9.17345	-0.332356
-9.14203	-0.57329
-9.11062	-0.793604
-9.0792	-0.98159
-9.04779	-1.12641
-9.01637	-1.2185
-8.98495	-1.24999
-8.95354	-1.21498
-8.92212	-1.10981
-8.89071	-0.933232
-8.85929	-0.6865
-8.82788	-0.373368
-8.79646	-1.6689e-15
-8.76504	0.425202
-8.73363	0.891854
-8.70221	1.38792
-8.6708	1.90009
-8.63938	2.41421
-8.60796	2.91579
-8.57655	3.39041
-8.54513	3.82427
-8.51372	4.2046
-8.4823	4.52015
-8.45088	4.76149
-8.41947	4.9214
-8.38805	4.99507
-8.35664	4.98028
-8.32522	4.87749
-8.2938	4.68978
-8.26239	4.42279
-8.23097	4.0845
-8.19956	3.68499
-8.16814	3.23607
-8.13672	2.75089
-8.10531	2.24351
-8.07389	1.72843
-8.04248	1.2201
-8.01106	0.73241
-7.97965	0.278312
-7.94823	-0.130674
-7.91681	-0.48479
-7.8854	-0.776358
-7.85398	-1
-7.82257	-1.15279
-7.79115	-1.23432
-7.75973	-1.24664
-7.72832	-1.19419
-7.6969	-1.08355
-7.66549	-0.923212
-7.63407	-0.723194
-7.60265	-0.494675
-7.57124	-0.249556
-7.53982	2.31781e-15
-7.50841	0.242023
-7.47699	0.465194
-7.44557	0.659265
-7.41416	0.815447
-7.38274	0.926736
-7.35133	0.988176
-7.31991	0.99704
-7.28849	0.952937
-7.25708	0.857821
-7.22566	0.715921
-7.19425	0.533585
-7.16283	0.31904
-7.13142	0.082088
-7.1	-0.166264
-7.06858	-0.414214
-7.03717	-0.649611
-7.00575	-0.860416
-6.97434	-1.03516
-6.94292	-1.16339
-6.9115	-1.23607
-6.88009	-1.24594
-6.84867	-1.18783
-6.81726	-1.05887
-6.78584	-0.858648
-6.75442	-0.589244
-6.72301	-0.255234
-6.69159	0.136449
-6.66018	0.576711
-6.62876	1.05458
-6.59734	1.55754
-6.56593	2.07196
-6.53451	2.58352
-6.5031	3.07769
-6.47168	3.54021
-6.44026	3.95758
-6.40885	4.31749
-6.37743	4.60924
-6.34602	4.82413
-6.3146	4.9557
-6.28319	5
-6.25177	4.9557
-6.22035	4.82413
-6.18894	4.60924
-6.15752	4.31749
-6.12611	3.95758
-6.09469	3.54021
-6.06327	3.07769
-6.03186	2.58352
-6.00044	2.07196
-5.96903	1.55754
-5.93761	1.05458
-5.90619	0.576711
-5.87478	0.136449
-5.84336	-0.255234
-5.81195	-0.589244
-5.78053	-0.858648
-5.74911	-1.05887
-5.7177	-1.18783
-5.68628	-1.24594
-5.65487	-1.23607
-5.62345	-1.16339
-5.59203	-1.03516
-5.56062	-0.860416
-5.5292	-0.649611
-5.49779	-0.414214
-5.46637	-0.166264
-5.43496	0.082088
-5.40354	0.31904
-5.37212	0.533585
-5.34071	0.715921
-5.30929	0.857821
-5.27788	0.952937
-5.24646	0.99704
-5.21504	0.988176
-5.18363	0.926736
-5.15221	0.815447
-5.1208	0.659265
-5.08938	0.465194
-5.05796	0.242023
-5.02655	-1.5452e-15
-4.99513	-0.249556
-4.96372	-0.494675
-4.9323	-0.723194
-4.90088	-0.923212
-4.86947	-1.08355
-4.83805	-1.19419
-4.80664	-1.24664
-4.77522	-1.23432
-4.7438	-1.15279
-4.71239	-1
-4.68097	-0.776358
-4.64956	-0.48479
-4.61814	-0.130674
-4.58673	0.278312
-4.55531	0.73241
-4.52389	1.2201
-4.49248	1.72843
-4.46106	2.24351
-4.42965	2.75089
-4.39823	3.23607
-4.36681	3.68499
-4.3354	4.0845
-4.30398	4.42279
-4.27257	4.68978
-4.24115	4.87749
-4.20973	4.98028
-4.17832	4.99507
-4.1469	4.9214
-4.11549	4.76149
-4.08407	4.52015
-4.05265	4.2046
-4.02124	3.82427
-3.98982	3.39041
-3.95841	2.91579
-3.92699	2.41421
-3.89557	1.90009
-3.86416	1.38792
-3.83274	0.891854
-3.80133	0.425202
-3.76991	-2.00079e-14
-3.7385	-0.373368
-3.70708	-0.6865
-3.67566	-0.933232
-3.64425	-1.10981
-3.61283	-1.21498
-3.58142	-1.24999
-3.55	-1.2185
-3.51858	-1.12641
-3.48717	-0.98159
-3.45575	-0.793604
-3.42434	-0.57329
-3.39292	-0.332356
-3.3615	-0.0829303
-3.33009	0.162903
-3.29867	0.393557
-3.26726	0.598384
-3.23584	0.768068
-3.20442	0.894978
-3.17301	0.973451
-3.14159	1
-3.11018	0.973451
-3.07876	0.894978
-3.04734	0.768068
-3.01593	0.598384
-2.98451	0.393557
-2.9531	0.162903
-2.92168	-0.0829303
-2.89027	-0.332356
-2.85885	-0.57329
-2.82743	-0.793604
-2.79602	-0.98159
-2.7646	-1.12641
-2.73319	-1.2185
-2.70177	-1.24999
-2.67035	-1.21498
-2.63894	-1.10981
-2.60752	-0.933232
-2.57611	-0.6865
-2.54469	-0.373368
-2.51327	1.33386e-14
-2.48186	0.425202
-2.45044	0.891854
-2.41903	1.38792
-2.38761	1.90009
-2.35619	2.41421
-2.32478	2.91579
-2.29336	3.39041
-2.26195	3.82427
-2.23053	4.2046
-2.19911	4.52015
-2.1677	4.76149
-2.13628	4.9214
-2.10487	4.99507
-2.07345	4.98028
-2.04204	4.87749
-2.01062	4.68978
-1.9792	4.42279
-1.94779	4.0845
-1.91637	3.68499
-1.88496	3.23607
-1.85354	2.75089
-1.82212	2.24351
-1.79071	1.72843
-1.75929	1.2201
-1.72788	0.73241
-1.69646	0.278312
-1.66504	-0.130674
-1.63363	-0.48479
-1.60221	-0.776358
-1.5708	-1
-1.53938	-1.15279
-1.50796	-1.23432
-1.47655	-1.24664
-1.44513	-1.19419
-1.41372	-1.08355
-1.3823	-0.923212
-1.35088	-0.723194
-1.31947	-0.494675
-1.28805	-0.249556
-1.25664	3.86301e-16
-1.22522	0.242023
-1.19381	0.465194
-1.16239	0.659265
-1.13097	0.815447
-1.09956	0.926736
-1.06814	0.988176
-1.03673	0.99704
-1.00531	0.952937
-0.973894	0.857821
-0.942478	0.715921
-0.911062	0.533585
-0.879646	0.31904
-0.84823	0.082088
-0.816814	-0.166264
-0.785398	-0.414214
-0.753982	-0.649611
-0.722566	-0.860416
-0.69115	-1.03516
-0.659734	-1.16339
-0.628319	-1.23607
-0.596903	-1.24594
-0.565487	-1.18783
-0.534071	-1.05887
-0.502655	-0.858648
-0.471239	-0.589244
-0.439823	-0.255234
-0.408407	0.136449
-0.376991	0.576711
-0.345575	1.05458
-0.314159	1.55754
-0.282743	2.07196
-0.251327	2.58352
-0.219911	3.07769
-0.188496	3.54021
-0.15708	3.95758
-0.125664	4.31749
-0.0942478	4.60924
-0.0628319	4.82413
-0.0314159	4.9557
0	NaN
0.0314159	4.9557
0.0628319	4.82413
0.0942478	4.60924
0.125664	4.31749
0.15708	3.95758
0.188496	3.54021
0.219911	3.07769
0.251327	2.58352
0.282743	2.07196
0.314159	1.55754
0.345575	1.05458
0.376991	0.576711
0.408407	0.136449
0.439823	-0.255234
0.471239	-0.589244
0.502655	-0.858648
0.534071	-1.05887
0.565487	-1.18783
0.596903	-1.24594
0.628319	-1.23607
0.659734	-1.16339
0.69115	-1.03516
0.722566	-0.860416
0.753982	-0.649611
0.785398	-0.414214
0.816814	-0.166264
0.84823	0.082088
0.879646	0.31904
0.911062	0.533585
0.942478	0.715921
0.973894	0.857821
1.00531	0.952937
1.03673	0.99704
1.06814	0.988176
1.09956	0.926736
1.13097	0.815447
1.16239	0.659265
1.19381	0.465194
1.22522	0.242023
1.25664	3.86301e-16
1.28805	-0.249556
1.31947	-0.494675
1.35088	-0.723194
1.3823	-0.923212
1.41372	-1.08355
1.44513	-1.19419
1.47655	-1.24664
1.50796	-1.23432
1.53938	-1.15279
1.5708	-1
1.60221	-0.776358
1.63363	-0.48479
1.66504	-0.130674
1.69646	0.278312
1.72788	0.73241
1.75929	1.2201
1.79071	1.72843
1.82212	2.24351
1.85354	2.75089
1.88496	3.23607
1.91637	3.68499
1.94779	4.0845
1.9792	4.42279
2.01062	4.68978
2.04204	4.87749
2.07345	4.98028
2.10487	4.99507
2.13628	4.9214
2.1677	4.76149
2.19911	4.52015
2.23053	4.2046
2.26195	3.82427
2.29336	3.39041
2.32478	2.91579
2.35619	2.41421
2.38761	1.90009
2.41903	1.38792
2.45044	0.891854
2.48186	0.425202
2.51327	1.33386e-14
2.54469	-0.373368
2.57611	-0.6865
2.60752	-0.933232
2.63894	-1.10981
2.67035	-1.21498
2.70177	-1.24999
2.73319	-1.2185
2.7646	-1.12641
2.79602	-0.98159
2.82743	-0.793604
2.85885	-0.57329
2.89027	-0.332356
2.92168	-0.0829303
2.9531	0.162903
2.98451	0.393557
3.01593	0.598384
3.04734	0.768068
3.07876	0.894978
3.11018	0.973451
3.14159	1
3.17301	0.973451
3.20442	0.894978
3.23584	0.768068
3.26726	0.598384
3.29867	0.393557
3.33009	0.162903
3.3615	-0.0829303
3.39292	-0.332356
3.42434	-0.57329
3.45575	-0.793604
3.48717	-0.98159
3.51858	-1.12641
3.55	-1.2185
3.58142	-1.24999
3.61283	-1.21498
3.64425	-1.10981
3.67566	-0.933232
3.70708	-0.6865
3.7385	-0.373368
3.76991	-2.00079e-14
3.80133	0.425202
3.83274	0.891854
3.86416	1.38792
3.89557	1.90009
3.92699	2.41421
3.95841	2.91579
3.98982	3.39041
4.02124	3.82427
4.05265	4.2046
4.08407	4.52015
4.11549	4.76149
4.1469	4.9214
4.17832	4.99507
4.20973	4.98028
4.24115	4.87749
4.27257	4.68978
4.30398	4.42279
4.3354	4.0845
4.36681	3.68499
4.39823	3.23607
4.42965	2.75089
4.46106	2.24351
4.49248	1.72843
4.52389	1.2201
4.55531	0.73241
4.58673	0.278312
4.61814	-0.130674
4.64956	-0.48479
4.68097	-0.776358
4.71239	-1
4.7438	-1.15279
4.77522	-1.23432
4.80664	-1.24664
4.83805	-1.19419
4.86947	-1.08355
4.90088	-0.923212
4.9323	-0.723194
4.96372	-0.494675
4.99513	-0.249556
5.02655	-1.5452e-15
5.05796	0.242023
5.08938	0.465194
5.1208	0.659265
5.15221	0.815447
5.18363	0.926736
5.21504	0.988176
5.24646	0.99704
5.27788	0.952937
5.30929	0.857821
5.34071	0.715921
5.37212	0.533585
5.40354	0.31904
5.43496	0.082088
5.46637	-0.166264
5.49779	-0.414214
5.5292	-0.649611
5.56062	-0.860416
5.59203	-1.03516
5.62345	-1.16339
5.65487	-1.23607
5.68628	-1.24594
5.7177	-1.18783
5.74911	-1.05887
5.78053	-0.858648
5.81195	-0.589244
5.84336	-0.255234
5.87478	0.136449
5.90619	0.576711
5.93761	1.05458
5.96903	1.55754
6.00044	2.07196
6.03186	2.58352
6.06327	3.07769
6.09469	3.54021
6.12611	3.95758
6.15752	4.31749
6.18894	4.60924
6.22035	4.82413
6.25177	4.9557
6.28319	5
6.3146	4.9557
6.34602	4.82413
6.37743	4.60924
6.40885	4.31749
6.44026	3.95758
6.47168	3.54021
6.5031	3.07769
6.53451	2.58352
6.56593	2.07196
6.59734	1.55754
6.62876	1.05458
6.66018	0.576711
6.69159	0.136449
6.72301	-0.255234
6.75442	-0.589244
6.78584	-0.858648
6.81726	-1.05887
6.84867	-1.18783
6.88009	-1.24594
6.9115	-1.23607
6.94292	-1.16339
6.97434	-1.03516
7.00575	-0.860416
7.03717	-0.649611
7.06858	-0.414214
7.1	-0.166264
7.13142	0.082088
7.16283	0.31904
7.19425	0.533585
7.22566	0.715921
7.25708	0.857821
7.28849	0.952937
7.31991	0.99704
7.35133	0.988176
7.38274	0.926736
7.41416	0.815447
7.44557	0.659265
7.47699	0.465194
7.50841	0.242023
7.53982	2.31781e-15
7.57124	-0.249556
7.60265	-0.494675
7.63407	-0.723194
7.66549	-0.923212
7.6969	-1.08355
7.72832	-1.19419
7.75973	-1.24664
7.79115	-1.23432
7.82257	-1.15279
7.85398	-1
7.8854	-0.776358
7.91681	-0.48479
7.94823	-0.130674
7.97965	0.278312
8.01106	0.73241
8.04248	1.2201
8.07389	1.72843
8.10531	2.24351
8.13672	2.75089
8.16814	3.23607
8.19956	3.68499
8.23097	4.0845
8.26239	4.42279
8.2938	4.68978
8.32522	4.87749
8.35664	4.98028
8.38805	4.99507
8.41947	4.9214
8.45088	4.76149
8.4823	4.52015
8.51372	4.2046
8.54513	3.82427
8.57655	3.39041
8.60796	2.91579
8.63938	2.41421
8.6708	1.90009
8.70221	1.38792
8.73363	0.891854
8.76504	0.425202
8.79646	-1.6689e-15
8.82788	-0.373368
8.85929	-0.6865
8.89071	-0.933232
8.92212	-1.10981
8.95354	-1.21498
8.98495	-1.24999
9.01637	-1.2185
9.04779	-1.12641
9.0792	-0.98159
9.11062	-0.793604
9.14203	-0.57329
9.17345	-0.332356
9.20487	-0.0829303
9.23628	0.162903
9.2677	0.393557
9.29911	0.598384
9.33053	0.768068
9.36195	0.894978
9.39336	0.973451
9.42478	1
